1a. INTC stock VaR calculation: 
95% historical VaR for INTC Return is -2.630910979687262%
95% parametric VaR for INTC Return is 3.223307374031956%
95% historical VaR for INTC PnL is -31515.500266439438
95% parametric VaR for INTC PnL is 37093.75598216144

1b. INTC and C portfolio VaR calculation:
95% historical VaR for portfolio return is -4.490424051143699%
95% parametric VaR for portfolio return is 4.7352253181014365%
95% historical VaR for portfolio PnL is -24938.71822409498
95% parametric VaR for portfolio PnL is 26498.580147777902

1c. INTC and INTC Call option portfolio VaR calculation:
95% historical VaR for portfolio is -3.080290015905168
95% parametric VaR for portfolio is 12.03626295653589

2a. Component VaR and Marginal VaR calculation:
Component VaR of C is 58.077928486421435.
Component VaR of INTC is 117.5074553276533.
Component VaR of MSFT is 547.4348466352931.
Marginal VaR of C is 35.74878211619409.
Marginal VaR of INTC is 99.83878680333748.
Marginal VaR of MSFT is 429.8377040683998.

2b. decay VaR calculation:
95% VaR for INTC Return with decay=0.95 is 2.5721122093391515%

3a:
Replicate Vasicek:
    DiscountFactor     Yield
1         0.937956  0.064053
2         0.874016  0.067328
3         0.810564  0.070008
4         0.749090  0.072224
5         0.690475  0.074075
6         0.635204  0.075635
7         0.583493  0.076960
8         0.535389  0.078095
9         0.490827  0.079074
10        0.449676  0.079923
11        0.411765  0.080664
12        0.376901  0.081314
13        0.344883  0.081889
14        0.315510  0.082398
15        0.288585  0.082851
16        0.263919  0.083257
17        0.241335  0.083622
18        0.220664  0.083951
19        0.201749  0.084249
20        0.184446  0.084520
21        0.168620  0.084767
22        0.154147  0.084993
23        0.140912  0.085201
24        0.128811  0.085392
25        0.117748  0.085568
26        0.107633  0.085732
27        0.098386  0.085883
28        0.089933  0.086024
29        0.082206  0.086156
30        0.075143  0.086279
Replicate CIR:
    DiscountFactor     Yield
1         0.937932  0.064078
2         0.873781  0.067463
3         0.809953  0.070260
4         0.748063  0.072567
5         0.689101  0.074474
6         0.633607  0.076054
7         0.581813  0.077372
8         0.533751  0.078478
9         0.489332  0.079413
10        0.448393  0.080208
11        0.410736  0.080891
12        0.376146  0.081482
13        0.344404  0.081995
14        0.315296  0.082446
15        0.288619  0.082843
16        0.264177  0.083196
17        0.241791  0.083511
18        0.221292  0.083793
19        0.202524  0.084047
20        0.185342  0.084278
21        0.169614  0.084487
22        0.155218  0.084678
23        0.142043  0.084853
24        0.129984  0.085014
25        0.118948  0.085163
26        0.108849  0.085300
27        0.099606  0.085427
28        0.091148  0.085545
29        0.083408  0.085655
30        0.076325  0.085758
3b.
Bond portfolio of zero coupon bond with 2 years to maturity and coupon bond with 4 years to maturity 4 coupon and semi annual coupon payment.
Both bond are 100.
VaR of the bond portfolio is 632.4619886997098.

4a. swap rate for 2~30 yrs
2:	  0.0672
3:	  0.0697
4:	  0.0718
5:	  0.0734
6:	  0.0748
7:	  0.0759
8:	  0.0768
9:	  0.0776
10:	  0.0783
11:	  0.0788
12:	  0.0793
13:	  0.0797
14:	  0.0801
15:	  0.0804
16:	  0.0807
17:	  0.0809
18:	  0.0811
19:	  0.0813
20:	  0.0815
21:	  0.0816
22:	  0.0817
23:	  0.0818
24:	  0.0819
25:	  0.0820
26:	  0.0821
27:	  0.0822
28:	  0.0822
29:	  0.0823
30:	  0.0824

4b. 1 year forward rates 1 year from now till 29 years from now
1:	 0.0706
2:	 0.0754
3:	 0.0789
4:	 0.0815
5:	 0.0834
6:	 0.0849
7:	 0.0860
8:	 0.0869
9:	 0.0876
10:	 0.0881
11:	 0.0885
12:	 0.0888
13:	 0.0890
14:	 0.0892
15:	 0.0893
16:	 0.0895
17:	 0.0895
18:	 0.0896
19:	 0.0897
20:	 0.0897
21:	 0.0897
22:	 0.0898
23:	 0.0898
24:	 0.0898
25:	 0.0898
26:	 0.0898
27:	 0.0898
28:	 0.0898
29:	 0.0898

4c. forward curve of next year
1:	 0.0706
2:	 0.0730
3:	 0.0749
4:	 0.0766
5:	 0.0780
6:	 0.0791
7:	 0.0801
8:	 0.0810
9:	 0.0817
10:	 0.0823
11:	 0.0829
12:	 0.0834
13:	 0.0838
14:	 0.0842
15:	 0.0845
16:	 0.0848
17:	 0.0851
18:	 0.0854
19:	 0.0856
20:	 0.0858
21:	 0.0860
22:	 0.0862
23:	 0.0863
24:	 0.0865
25:	 0.0866
26:	 0.0867
27:	 0.0868
28:	 0.0869
29:	 0.0870
9 yr swap rate next year:	 0.0806
10 yr swap rate this year: 	 0.0783
9 yr swap rate next year is higher. This means that 10 yr swap will have negative value.

5.
survival probabilities:
[0.998795, 0.9963987921282227, 0.9909502397720048, 0.9817134795476664, 0.9708809447814188]
unconditional default probabilities:
[0.001205   0.00239621 0.00544855 0.00923676 0.01083253]

6.
At and sigma_t is: 
[2.13494336e+11 1.77980835e-02]
DD: 129.6410144120307
PD: 0.0
expected recovery: 0.0

